reading_id,reading_time,wire_id,result_classification,heart_rate,heart_rate_alert,firmware_version,device_app_version,hardware_version,waveform_samples
f6d584a0-59e0-11f0-8080-808080808080,Sat Jul 05 20:45:19 UTC 2025,6120af6d6442,NSR,96,NONE,20001.214.24,2.17,Charge 6,[-2307  -2317  -2320  -2292  -2199  -2014  -1752  -1500  -1351  -1308  -1311  -1319  -1345  -1430  -1595  -1814  -2019  -2151  -2191  -2131  -1952  -1699  -1471  -1320  -1223  -1149  -1075  -997  -936  -912  -917  -953  -1022  -1111  -1188  -1246  -1324  -1426  -1396  -1065  -442  444  1600  2926  4258  5452  6292  6557  6238  5505  4558  3541  2553  1737  1196  934  924  1019  994  795  564  432  423  502  626  757  874  972  1042  1099  1185  1310  1434  1519  1563  1581  1585  1584  1586  1599  1641  1760  2014  2379  2718  2896  2917  2885  2887  2939  3008  3063  3092  3094  3070  3021  2963  2922  2908  2921  2931  2860  2622  2242  1863  1582  1371  1177  1022  946  934  932  902  849  805  792  795  787  746  675  608  582  596  624  680  809  987  1118  1120  978  759  575  496  516  608  730  825  860  825  720  586  483  415  336  232  119  -4  -130  -216  -236  -218  -197  -182  -153  -101  -42  5  42  57  18  -105  -279  -416  -478  -498  -511  -525  -535  -541  -556  -589  -639  -703  -795  -927  -1066  -1159  -1170  -1068  -826  -474  -129  77  99  107  472  1370  2591  3856  4965  5668  5818  5531  4929  4044  3080  2313  1759  1244  671  84  -408  -705  -802  -796  -775  -762  -757  -759  -769  -772  -742  -668  -590  -558  -558  -539  -489  -419  -322  -188  -36  104  227  348  461  536  554  531  506  551  750  1083  1400  1576  1621  1610  1567  1481  1363  1249  1158  1086  1019  918  764  607  506  440  320  90  -194  -423  -548  -591  -590  -579  -580  -602  -645  -695  -725  -710  -681  -693  -786  -977  -1222  -1414  -1499  -1506  -1480  -1451  -1434  -1436  -1467  -1524  -1580  -1608  -1611  -1607  -1622  -1671  -1737  -1784  -1787  -1753  -1709  -1680  -1658  -1598  -1465  -1296  -1177  -1144  -1161  -1193  -1227  -1255  -1232  -1094  -829  -535  -320  -211  -190  -249  -376  -527  -642  -680  -645  -580  -536  -529  -543  -561  -585  -622  -677  -757  -837  -866  -867  -883  -800  -463  111  848  1702  2566  3358  4149  4894  5315  5256  4750  3841  2732  1751  1050  598  297  31  -222  -408  -529  -629  -713  -773  -815  -850  -874  -872  -830  -752  -670  -614  -571  -510  -413  -296  -202  -161  -156  -150  -125  -84  -30  55  196  387  600  786  924  1035  1133  1198  1229  1255  1290  1296  1248  1181  1143  1137  1143  1140  1113  1055  926  660  273  -106  -372  -509  -566  -596  -632  -689  -777  -891  -1004  -1076  -1095  -1093  -1104  -1104  -1058  -980  -919  -898  -900  -910  -920  -924  -919  -920  -951  -1021  -1102  -1144  -1133  -1111  -1116  -1142  -1171  -1182  -1171  -1150  -1138  -1138  -1135  -1096  -996  -869  -776  -719  -645  -553  -497  -517  -596  -688  -752  -778  -783  -780  -777  -775  -780  -800  -858  -974  -1111  -1173  -1091  -897  -704  -600  -601  -683  -812  -944  -1043  -1075  -1030  -943  -869  -808  -657  -268  453  1470  2579  3564  4405  5131  5604  5680  5315  4501  3368  2215  1271  580  120  -131  -206  -167  -135  -221  -401  -574  -678  -705  -665  -568  -449  -356  -311  -300  -312  -345  -404  -472  -511  -493  -414  -267  -62  145  297  398  509  655  792  865  874  850  835  888  1052  1275  1439  1513  1566  1642  1713  1750  1750  1664  1407  999  582  265  62  -51  -100  -106  -91  -78  -80  -114  -217  -409  -641  -837  -962  -1027  -1060  -1083  -1099  -1095  -1061  -1009  -960  -928  -912  -907  -909  -926  -960  -996  -1013  -1009  -987  -948  -894  -851  -861  -924  -996  -1048  -1077  -1090  -1086  -1060  -1009  -933  -849  -773  -702  -633  -588  -598  -675  -790  -869  -827  -624  -339  -135  -110  -241  -429  -576  -657  -700  -730  -758  -798  -847  -882  -893  -892  -887  -884  -882  -882  -880  -875  -873  -876  -845  -699  -391  61  685  1526  2479  3409  4342  5227  5817  5939  5563  4697  3533  2412  1549  936  447  31  -231  -324  -337  -342  -346  -333  -288  -225  -179  -166  -171  -181  -196  -234  -309  -383  -384  -294  -152  21  242  483  671  771  807  810  770  656  486  349  349  537  856  1185  1466  1686  1817  1855  1835  1791  1742  1698  1640  1504  1234  887  598  435  348  278  210  116  -74  -362  -630  -773  -799  -762  -693  -622  -618  -740  -952  -1140  -1229  -1233  -1200  -1164  -1133  -1092  -1020  -936  -901  -952  -1054  -1139  -1183  -1204  -1208  -1183  -1120  -1042  -978  -940  -922  -911  -909  -935  -1003  -1085  -1119  -1077  -985  -887  -814  -777  -771  -778  -783  -771  -725  -621  -459  -306  -255  -315  -425  -533  -613  -651  -654  -643  -644  -686  -791  -925  -1024  -1073  -1108  -1135  -1126  -1085  -1052  -1050  -1065  -1076  -1064  -1014  -898  -655  -222  399  1222  2213  3174  3970  4654  5208  5489  5467  5203  4708  4007  3165  2228  1308  578  113  -99  -111  -104  -235  -441  -587  -648  -670  -677  -652  -569  -436  -301  -206  -168  -180  -212  -237  -239  -210  -137  -17  133  281  388  427  418  417  480  634  829  968  1012  1004  1010  1067  1171  1273  1336  1369  1395  1409  1380  1296  1170  1012  793  492  168  -78  -221  -313  -409  -517  -616  -687  -753  -830  -906  -972  -1021  -1029  -1000  -964  -934  -921  -949  -1004  -1063  -1114  -1146  -1159  -1165  -1164  -1135  -1073  -1030  -1047  -1068  -1012  -886  -766  -697  -662  -639  -635  -672  -754  -846  -902  -916  -912  -910  -911  -900  -859  -785  -704  -632  -564  -512  -500  -505  -473  -402  -334  -302  -306  -325  -352  -385  -417  -439  -449  -455  -473  -515  -584  -674  -775  -866  -925  -940  -924  -897  -888  -918  -960  -953  -854  -708  -599  -516  -311  188  1045  2158  3372  4567  5609  6283  6451  6119  5300  4097  2815  1707  884  454  357  332  192  -67  -342  -528  -608  -633  -636  -605  -534  -460  -439  -473  -523  -541  -471  -315  -147  -32  22  33  31  48  104  180  237  280  359  503  680  824  910  990  1130  1298  1401  1429  1433  1411  1346  1281  1271  1311  1352  1347  1273  1136  925  583  96  -382  -671  -765  -770  -760  -754  -770  -833  -951  -1098  -1227  -1301  -1320  -1293  -1241  -1201  -1209  -1255  -1313  -1366  -1404  -1423  -1429  -1428  -1413  -1372  -1310  -1254  -1232  -1251  -1301  -1357  -1394  -1404  -1395  -1380  -1377  -1395  -1430  -1483  -1568  -1675  -1775  -1876  -1990  -2070  -2011  -1740  -1353  -1055  -936  -922  -926  -896  -811  -686  -556  -427  -295  -185  -126  -115  -121  -125  -125  -140  -192  -278  -351  -377  -368  -363  -390  -448  -535  -673  -838  -957  -989  -959  -906  -869  -868  -861  -711  -235  669  1931  3325  4590  5507  5916  5813  5352  4678  3876  3000  2052  1065  211  -328  -561  -639  -709  -836  -975  -1062  -1100  -1121  -1136  -1136  -1123  -1105  -1067  -969  -802  -625  -512  -477  -466  -408  -270  -97  29  111  225  426  689  953  1204  1484  1797  2071  2235  2283  2221  2047  1820  1644  1562  1541  1530  1505  1459  1391  1293  1157  979  741  453  179  -15  -131  -199  -241  -293  -399  -563  -730  -865  -968  -1029  -1020  -962  -920  -925  -950  -964  -966  -973  -1004  -1069  -1155  -1230  -1276  -1296  -1302  -1303  -1297  -1280  -1251  -1218  -1187  -1166  -1167  -1190  -1218  -1241  -1265  -1302  -1345  -1376  -1386  -1386  -1384  -1375  -1340  -1248  -1082  -867  -682  -582  -559  -563  -551  -511  -460  -429  -423  -410  -346  -216  -58  68  139  170  189  213  240  255  245  207  126  -9  -152  -208  -137  -10  72  88  67  13  -80  -197  -288  -269  -12  590  1562  2768  3960  4990  5801  6257  6296  6037  5542  4769  3782  2739  1752  921  307  -93  -318  -436  -501  -521  -510  -498  -509  -556  -624  -679  -699  -668  -575  -450  -355  -313  -284  -222  -133  -66  -44  -34  13  116  255  408  546  636  684  731  810  913  1019  1139  1307  1499  1648  1731  1767  1780  1778  1738  1626  1461  1300  1166  1032  870  680  487  330  227  140  17  -146  -316  -459  -567  -646  -705  -745  -771  -786  -794  -795  -793  -790  -789  -792  -791  -773  -727  -663  -617  -603  -598  -593  -611  -666  -754  -863  -950  -946  -843  -714  -646  -668  -747  -829  -882  -905  -911  -909  -894  -855  -804  -770  -760  -754  -719  -641  -547  -493  -510  -570  -627  -658  -672  -688  -707  -715  -694  -644  -583  -515  -437  -403  -483  -660  -836  -932  -954  -949  -960  -1001  -1063  -1145  -1241  -1314  -1345  -1359  -1380  -1421  -1474  -1481  -1330  -972  -409  434  1618  3007  4377  5575  6400  6572  6044  5049  3864  2756  1897  1232  635  103  -278  -464  -516  -537  -582  -651  -727  -780  -797  -795  -785  -770  -750  -734  -720  -707  -693  -676  -636  -551  -426  -286  -138  3  98  142  166  194  231  276  316  346  416  591  835  1024  1099  1104  1091  1076  1063  1052  1031  987  907  781  608  399  193  36  -65  -157  -280  -462  -722  -1030  -1298  -1458  -1511  -1471  -1348  -1187  -1073  -1050  -1102  -1191  -1274  -1325  -1343  -1343  -1336  -1333  -1344  -1376  -1414  -1433  -1430  -1422  -1418  -1396  -1327  -1214  -1120  -1116  -1206  -1334  -1446  -1517  -1546  -1539  -1503  -1427  -1305  -1172  -1080  -1037  -1016  -1010  -1029  -1055  -1057  -1016  -938  -833  -708  -588  -505  -431  -294  -88  103  202  192  101  -18  -109  -169  -241  -350  -462  -542  -592  -646  -726  -827  -914  -960  -970  -981  -1021  -1084  -1142  -1159  -1080  -856  -517  -84  532  1412  2496  3635  4672  5429  5715  5508  4926  4076  3153  2370  1733  1189  739  352  5  -235  -337  -370  -400  -424  -410  -333  -214  -112  -69  -105  -225  -387  -506  -526  -440  -277  -105  19  92  126  134  131  126  132  180  302  482  662  836  1064  1351  1611  1767  1805  1751  1651  1557  1489  1435  1393  1371  1340  1260  1121  918  687  523  465  472  491  501  488  440  363  283  223  184  143  69  -58  -231  -405  -542  -641  -716  -769  -811  -851  -884  -912  -940  -964  -979  -988  -1000  -1017  -1033  -1044  -1050  -1053  -1057  -1055  -1037  -991  -927  -870  -828  -800  -802  -847  -913  -959  -958  -907  -829  -773  -773  -823  -890  -948  -999  -1017  -928  -676  -339  -81  25  34  2  -58  -147  -236  -302  -345  -398  -494  -625  -752  -844  -892  -902  -891  -866  -833  -806  -795  -822  -914  -1065  -1168  -1088  -795  -324  367  1323  2450  3645  4840  5780  6120  5779  4888  3666  2481  1612  1025  583  244  -4  -228  -495  -763  -923  -950  -909  -867  -844  -833  -817  -788  -750  -706  -653  -587  -512  -438  -376  -325  -278  -229  -153  -39  82  175  255  373  521  638  696  736  837  1062  1357  1586  1694  1758  1859  1979  2034  1997  1890  1713  1477  1252  1060  850  599  358  188  117  128  147  48  -259  -685  -1003  -1111  -1069  -942  -775  -625  -509  -389  -256  -161  -172  -316  -552  -780  -918  -952  -911  -844  -792  -762  -750  -785  -892  -1013  -1029  -916  -762  -657  -629  -652  -686  -701  -709  -748  -823  -878  -862  -792  -747  -767  -799  -790  -750  -701  -667  -660  -665  -663  -648  -626  -594  -554  -505  -435  -349  -288  -310  -455  -703  -973  -1200  -1376  -1500  -1565  -1574  -1518  -1381  -1190  -1016  -901  -843  -830  -852  -861  -775  -540  -160  407  1247  2308  3394  4372  5179  5661  5684  5278  4532  3578  2666  1980  1459  948  411  -52  -313  -368  -327  -268  -224  -238  -344  -503  -619  -649  -626  -572  -475  -342  -205  -94  -24  1  -3  -21  -40  -54  -46  33  225  484  721  887  972  995  986  976  984  1021  1082  1174  1315  1480  1592  1623  1613  1582  1499  1324  1068  803  590  426  275  140  39  -36  -140  -368  -759  -1187  -1456  -1496  -1362  -1146  -949  -828  -797  -860  -1003  -1174  -1318  -1397  -1402  -1335  -1218  -1099  -1018  -964  -903  -840  -832  -913  -1049  -1170  -1233  -1229  -1187  -1147  -1116  -1073  -992  -876  -759  -672  -620  -621  -713  -915  -1161  -1330  -1349  -1206  -935  -645  -441  -339  -293  -286  -335  -454  -600  -697  -692  -589  -444  -340  -319  -371  -460  -537  -577  -606  -664  -749  -825  -889  -964  -1051  -1125  -1168  -1186  -1207  -1257  -1288  -1143  -728  -121  631  1578  2646  3699  4712  5579  6033  5996  5574  4790  3764  2756  1868  1089  450  -24  -330  -474  -513  -528  -553  -579  -587  -577  -551  -514  -478  -450  -428  -412  -409  -408  -380  -299  -195  -126  -103  -86  -59  -27  33  178  424  677  826  869  893  969  1088  1173  1197  1224  1282  1337  1366  1365  1356  1374  1391  1345  1209  1030  889  823  780  675  470  216  -15  -217  -401  -547  -646  -719  -784  -838  -877  -900  -925  -979  -1073  -1179  -1247  -1250  -1190  -1098  -1008  -929  -854  -793  -764  -760  -765  -769  -766  -755  -740  -734  -753  -803  -865  -908  -931  -952  -974  -977  -950  -908  -882  -879  -876  -865  -860  -862  -854  -816  -746  -668  -600  -535  -453  -358  -285  -253  -255  -269  -275  -259  -228  -201  -186  -183  -207  -312  -526  -788  -1003  -1137  -1197  -1194  -1172  -1170  -1171  -1149  -1115  -1074  -1018  -949  -893  -850  -743  -486  -28  728  1835  3136  4441  5625  6440  6650  6272  5425  4253  3038  2041  1321  836  498  156  -249  -617  -828  -881  -857  -819  -785  -756  -727  -701  -683  -665  -627  -559  -471  -390  -340  -325  -326  -319  -286  -230  -166  -87  32  187  336  449  538  640  787  972  1147  1272  1347  1393  1406  1375  1317  1266  1233  1214  1193  1147  1050  904  749  621  489  303  86  -94  -224  -339  -454  -565  -683  -829  -984  -1099  -1153  -1156  -1108  -1009  -901  -848  -868  -925  -969  -985  -986  -984  -972  -948  -923  -903  -886  -871  -865  -864  -862  -853  -842  -843  -858  -866  -858  -840  -831  -839  -840  -808  -760  -722  -694  -677  -680  -705  -737  -751  -735  -705  -677  -644  -608  -587  -589  -596  -562  -455  -307  -197  -159  -161  -173  -193  -232  -288  -344  -389  -436  -505  -583  -637  -654  -651  -644  -635  -628  -637  -681  -772  -877  -936  -950  -952  -838  -423  353  1425  2668  3887  4957  5874  6521  6727  6463  5756  4679  3436  2274  1336  614  29  -421  -654  -661  -579  -552  -611  -714  -817  -892  -916  -868  -758  -636  -549  -503  -486  -485  -487  -480  -459  -437  -424  -410  -367  -259  -76  143  331  447  510  557  595  624  657  712  812  957  1096  1156  1124  1074  1064  1084  1110  1127  1093  961  722  421  122  -116  -281  -406  -528  -651  -750  -808  -826  -811  -774  -718  -656  -610  -598  -641  -758  -913  -1036  -1095  -1103  -1075  -1024  -967  -913  -859  -793  -726  -684  -668  -653  -616  -555  -492  -456  -453  -461  -458  -457  -491  -580  -701  -794  -806  -751  -694  -688  -743  -831  -906  -942  -949  -941  -912  -846  -746  -640  -566  -538  -533  -518  -463  -377  -289  -208  -139  -96  -81  -83  -98  -131  -187  -262  -343  -433  -558  -709  -834  -896  -898  -869  -834  -809  -800  -804  -815  -825  -807  -719  -525  -203  225  705  1268  2026  2994  4131  5370  6433  6947  6752  5916  4670  3354  2279  1558  1055  549  0  -415  -597  -658  -695  -717  -721  -720  -726  -739  -751  -755  -757  -766  -783  -787  -743  -628  -454  -282  -180  -150  -134  -80  17  139  257  336  367  378  411  489  610  753  885  987  1076  1173  1268  1334  1361  1363  1345  1288  1165  976  773  608  462  298  139  20  -72  -180  -329  -513  -693  -828  -918  -986  -1027  -1038  -1026  -1005  -988  -979  -954  -889  -805  -765  -788  -831  -856  -857  -839  -799  -726  -617  -481  -346  -262  -271  -367  -488  -581  -631  -641  -629  -617  -617  -629  -654  -695  -743  -776  -791  -799  -806  -799  -752  -655  -540  -469  -475  -534  -601  -644  -658  -653  -632  -585  -520  -459  -426  -423  -433  -434  -399  -307  -158  4  110  112  6  -166  -328  -441  -536  -640  -734  -796  -825  -838  -844  -840  -819  -791  -779  -790  -819  -869  -942  -1029  -1068  -940  -566  69  978  2120  3374  4632  5746  6422  6413  5762  4691  3507  2541  1875  1349  847  332  -189  -608  -823  -878  -873  -852  -814  -755  -670  -554  -431  -348  -325  -337  -349  -332  -262  -163  -98  -100  -120  -96  -16  87  174  233  289  370  486  641  805  926  988  1016  1041  1096  1200  1327  1416  1445  1441  1431  1427  1423  1389  1275  1077  861  673  479  268  101  -13  -145  -326  -495  -587  -625  -668  -732  -783  -805  -827  -892  -1012  -1160  -1292  -1371  -1395  -1386  -1345  -1260  -1141  -1048  -1019  -1014  -987  -963  -986  -1048  -1116  -1174  -1211  -1223  -1213  -1183  -1137  -1087  -1045  -1019  -991  -943  -899  -896  -927  -952  -949  -933  -923  -914  -894  -865  -842  -832  -831  -833  -836  -839  -843  -841  -810  -729  -614  -512  -452  -431  -435  -457  -486  -511  -523  -528  -543  -591  -672  -770  -874  -967  -1026  -1048  -1052  -1054  -1059  -1066  -1070  -1064  -1030  -957  -826  -591  -205  384  1288  2501  3772  4827  5540  5817  5623  5091  4343  3410  2443  1653  1037  505  65  -255  -434  -471  -464  -499  -548  -566  -566  -572  -577  -549  -482  -408  -371  -387  -447  -524  -582  -609  -610  -567  -442  -230  6  188  289  354  426  503  570  627  675  717  789  926  1102  1246  1336  1394  1429  1443  1454  1469  1466  1414  1304  1160  1008  862  734  633  540  425  283  123  -27  -137  -203  -252  -310  -382  -446  -495  -549  -598  -614  -619  -646  -702  -774  -844  -895  -919  -918  -899  -875  -851  -821  -790  -763  -727  -682  -643  -624  -633  -681  -761  -839  -880  -877  -844  -807  -788  -790  -804  -829  -854  -859  -819  -724  -598  -494  -456  -494  -584  -678  -729  -697  -567  -390  -262  -231  -274  -345  -417  -475  -512  -530  -549  -581  -634  -705  -779  -842  -889  -927  -975  -1027  -1035  -971  -872  -811  -800  -730  -458  24  632  1334  2107  2919  3814  4782  5564  5837  5528  4751  3690  2659  1885  1312  806  346  -21  -275  -420  -488  -519  -528  -512  -488  -474  -473  -482  -491  -487  -446  -356  -228  -100  -15  35  76  103  108  112  140  198  285  417  604  791  916  985  1035  1057  1040  1022  1061  1172  1311  1421  1490  1533  1566  1594  1597  1506  1255  896  560  312  133  10  -58  -118  -244  -450  -669  -821  -891  -924  -982  -1099  -1260  -1403  -1484  -1518  -1535  -1540  -1525  -1476  -1396  -1309  -1244  -1224  -1257  -1339  -1431  -1484  -1478  -1439  -1396  -1348  -1283  -1213  -1164  -1150  -1160  -1180  -1196  -1207  -1218  -1235  -1257  -1262  -1217  -1110  -985  -901  -876  -883  -891  -872  -809  -724  -675  -682  -705  -710  -705  -702  -697  -683  -657  -630  -622  -667  -808  -1022  -1196  -1273  -1300  -1314  -1307  -1275  -1226  -1167  -1108  -1049  -987  -906  -772  -537  -166  334  992  1833  2781  3781  4821  5696  6144  6105  5595  4679  3631  2734  2017  1447  1064  832  644  489  392  323  239  118  -19  -117  -124  -54  19  50  45  30  17  11  9  34  117  253  397  498  537  555  622  748  887  987  1038  1071  1120  1195  1287  1385  1517  1722  1963  2139  2203  2194  2162  2113  2022  1852  1581  1241  921  697  558  429  232  -59  -360  -562  -675  -793  -938  -1044  -1075  -1068  -1085  -1162  -1275  -1362  -1395  -1399  -1411  -1450  -1501  -1512  -1431  -1276  -1116  -1005  -958  -965  -1010  -1090  -1201  -1307  -1357  -1342  -1305  -1286  -1269  -1219  -1132  -1056  -1041  -1056  -1041  -990  -934  -889  -856  -834  -823  -822  -828  -831  -818  -773  -711  -666  -667  -712  -774  -820  -847  -881  -924  -954  -958  -960  -993  -1083  -1222  -1362  -1443  -1449  -1409  -1334  -1188  -965  -742  -599  -492  -250  320  1286  2499  3721  4793  5578  5933  5868  5452  4662  3607  2569  1723  1118  737  456  181  -29  -134  -210  -320  -459  -591  -685  -735  -753  -725  -639  -523  -423  -366  -353  -360  -370  -377  -364  -315  -232  -127  8  178  342  449  489  489  487  519  622  793  982  1138  1233  1269  1268  1254  1244  1243  1246  1246  1241  1215  1121  918  627  333  111  -49  -217  -444  -695  -876  -941  -940  -944  -999  -1113  -1239  -1298  -1250  -1137  -1036  -984  -963  -962  -1008  -1136  -1312  -1440  -1440  -1297  -1072  -881  -810  -870  -1024  -1194  -1302  -1310  -1217  -1057  -897  -798  -761  -756  -765  -782  -802  -818  -829  -835  -818  -754  -635  -483  -337  -264  -297  -382  -446  -474  -492  -534  -606  -692  -776  -847  -897  -925  -937  -931  -885  -785  -669  -600  -588  -598  -606  -611  -616  -626  -647  -654  -525  -39  936  2259  3605  4746  5591  6029  5993  5582  4922  4053  3071  2152  1353  639  76  -229  -352  -446  -551  -646  -704  -695  -639  -581  -542  -519  -503  -473  -415  -340  -276  -228  -187  -159  -152  -172  -210  -233  -195  -84  65  219  380  558  728  869  978  1054  1098  1138  1202  1280  1338  1355  1326  1246  1124  999  909  847  780  691  588  446  219  -70  -324  -479  -554  -598  -662  -773  -909  -1023  -1092  -1132  -1169  -1216  -1253  -1265  -1255  -1226  -1177  -1121  -1074  -1048  -1041  -1043  -1048  -1059  -1072  -1064  -1012  -934  -878  -865  -880  -906  -941  -978  -1006  -1021  -1023  -1010  -981  -943  -902  -848  -773  -675  -557  -440  -364  -335  -331  -332  -343  -381  -453  -542  -613  -631  -597  -549  -517  -511  -541  -622  -759  -915  -1027  -1067  -1055  -1007  -924  -829  -757  -704  -642  -576  -541  -540  -516  -380  -72  473  1352  2549  3899  5205  6226  6686  6500  5781  4684  3419  2240  1290  616  237  121  146  130  -57  -373  -666  -842  -908  -916  -904  -861  -761  -597  -397  -205  -60  25  43  -8  -72  -59  33  125  176  220  289  377  453  494  512  540  617  743  898  1063  1213  1327  1401  1439  1427  1370  1305  1248  1178  1085  979  867  749  607  425  223  36  -126  -264  -374  -471  -582  -716  -860  -984  -1057  -1076  -1063  -1049  -1058  -1093  -1119  -1093  -1020  -959  -954  -996  -1034  -1013  -941  -877  -852  -852  -859  -872  -898  -933  -957  -963  -959  -957  -962  -963  -931  -842  -724  -640  -614  -629  -666  -727  -799  -850  -867  -864  -853  -838  -817  -779  -707  -617  -552  -526  -506  -466  -427  -418  -441  -482  -548  -652  -795  -952  -1077  -1142  -1154  -1138  -1113  -1088  -1070  -1061  -1058  -1065  -1086  -1124  -1131  -1003  -660  -83  708  1637  2614  3640  4732  5764  6487  6680  6286  5404  4248  3116  2186  1450  878  462  146  -114  -298  -404  -466  -496  -496  -483  -470  -467  -483  -506  -520  -515  -491  -457  -425  -397  -366  -325  -255  -135  24  185  319  417  481  523  560  620  719  841  937  982  991  1002  1047  1127  1219  1294  1336  1352  1359  1357  1316  1200  1013  798  581  381  215  71  -94  -304  -533  -726  -840  -889  -908  -920  -940  -980  -1033  -1072  -1086  -1085  -1082  -1080  -1080  -1080  -1065  -1030  -1002  -1012  -1049  -1078  -1080  -1069  -1074  -1099  -1123  -1136  -1140  -1132  -1101  -1039  -963  -897  -854  -830  -807  -771  -738  -765  -870  -980  -1028  -1020  -996  -983  -984  -976  -951  -922  -897  -864  -802  -719  -639  -579  -523  -461  -403  -374  -382  -409  -432  -459  -511  -581  -634  -668  -711  -771  -834  -898  -947  -942  -870  -771  -712  -746  -872  -1038  -1190  -1286  -1296  -1180  -884  -375  295  1062  1950  2988  4122  5287  6331  6941  6911  6278  5163  3794  2551  1639  979  487  135  -167  -465  -675  -751  -749  -719  -653  -534  -395  -290  -245  -253  -295  -339  -366  -373  -373  -366  -334  -253  -134  -22  38  50  55  87  157  280  480  720  910  1029  1109  1158  1175  1184  1229  1328  1441  1493  1438  1304  1164  1071  1018  957  844  690  548  422  247  -7  -268  -470  -641  -809  -924  -951  -933  -918  -930  -988  -1097  -1205  -1238  -1169  -1049  -955  -914  -906  -909  -922  -943  -962  -972  -978  -991  -1013  -1035  -1045  -1048  -1044  -1027  -986  -930  -884  -863  -861  -873  -897  -921  -922  -886  -826  -791  -814  -877  -953  -1025  -1070  -1069  -1017  -934  -843  -746  -648  -575  -544  -541  -546  -545  -532  -498  -437  -352  -268  -228  -259  -345  -450  -547  -616  -655  -685  -729  -782  -818  -828  -836  -865  -910  -947  -950  -904  -799  -655  -526  -458  -443  -410  -252  171  974  2115  3367  4542  5551  6194  6268  5797  4903  3751  2641  1834  1334  1000  721  468  243  35  -163  -331  -449  -532  -599  -645  -655  -622  -551  -462  -385  -333  -302  -283  -271  -251  -184  -40  145  294  365  388  414  452  480  493  529  648  860  1095  1262  1325  1316  1293  1296  1328  1385  1449  1488  1468  1378  1250  1117  955  734  495  292  122  -20  -115  -158  -190  -272  -438  -644  -814  -921  -989  -1035  -1056  -1055  -1050  -1056  -1078  -1109  -1134  -1151  -1156  -1129  -1043  -909  -791  -744  -776  -850  -922  -967  -981  -975  -964  -951  -931  -912  -908  -916  -904  -845  -754  -673  -619  -584  -568  -594  -679  -795  -879  -891  -842  -771  -721  -713  -738  -774  -801  -809  -794  -745  -656  -551  -477  -457  -472  -493  -496  -487  -502  -557  -614  -641  -644  -658  -711  -793  -863  -899  -915  -925  -937  -955  -965  -951  -909  -850  -777  -653  -436  -93  461  1321  2435  3609  4694  5597  6113  6055  5464  4518  3450  2505  1805  1262  710  119  -361  -602  -640  -611  -585  -552  -515  -499  -515  -548  -573  -582  -581  -573  -547  -485  -397  -309  -218  -119  -35  14  28  18  7  40  167  385  618  788  873  912  958  1049  1196  1365  1491  1532  1492  1421  1370  1353  1344  1315  1252  1156  1024  847  653  489  332  124  -104  -268  -343  -398  -515  -707  -898  -1003  -1010  -961  -903  -863  -836  -799  -740  -679  -658  -696  -756  -801  -838  -874  -903  -922  -927  -909  -869  -824  -805  -821  -857  -884  -893  -895  -902  -914  -915  -894  -871  -872  -902  -935  -947  -948  -961  -980  -978  -941  -882  -810  -717  -607  -522  -492  -504  -529  -543  -534  -503  -450  -375  -302  -293  -387  -539  -662  -719  -745  -787  -861  -949  -1024  -1076  -1099  -1086  -1033  -962  -908  -881  -859  -807  -697  -531  -338  -86  358  1101  2083  3175  4291  5287  5931  6099  5822  5120  4080  2973  2033  1268  611  80  -279  -464  -504  -481  -499  -596  -725  -820  -852  -818  -726  -612  -530  -503  -521  -572  -634  -658  -589  -416  -182  43  208  291  318  340  382  437  497  585  721  882  1013  1090  1120  1133  1160  1215  1302  1427  1558  1617  1564  1442  1315  1194  1044  863  682  504  295  43  -235  -517  -751  -878  -906  -885  -857  -839  -836  -865  -937  -1030  -1109  -1159  -1182  -1170  -1128  -1071  -1027  -1007  -1004  -1004  -1004  -1005  -1001  -975  -920  -855  -810  -804  -830  -873  -921  -964  -981  -950  -889  -843  -844  -891  -936  -951  -957  -969  -968  -934  -878  -825  -786  -766  -766  -770  -745  -668  -564  -487  -457  -450  -437  -404  -360  -329  -321  -327  -339  -352  -362  -370  -379  -389  -401  -432  -509  -636  -773  -866  -892  -878  -868  -871  -868  -841  -801  -777  -775  -752  -644  -405  39  821  1944  3177  4298  5241  5931  6238  6103  5500  4454  3221  2171  1474  1060  747  366  -89  -464  -635  -636  -577  -523  -487  -459  -440  -443  -467  -491  -499  -488  -451  -375  -277  -204  -183  -194  -203  -173  -76  75  229  344  409  458  527  629  756  903  1054  1180  1271  1336  1373  1380  1374  1371  1359  1311  1213  1084  961  870  801  710  551  334  115  -97  -330  -560  -729  -820  -841  -805  -756  -743  -775  -832  -889  -934  -971  -1005  -1038  -1071  -1088  -1076  -1037  -982  -925  -886  -879  -891  -907  -920  -932  -944  -949  -944  -920  -875  -827  -801  -812  -845  -867  -871  -888  -923  -942  -936  -930  -938  -948  -936  -894  -848  -835  -858  -897  -942  -989  -1026  -1048  -1054  -1033  -975  -892  -805  -724  -650  -595  -562  -542  -524  -485  -407  -313  -249  -227  -226  -229  -244  -301  -427  -603  -755  -835  -858  -863  -860  -841  -811  -788  -782  -790  -800  -806  -810  -812  -796  -725  -576  -363  -68  419  1224  2341  3643  5011  6223  6909  6876  6229  5177  3998  2991  2238  1607  1010  456  -10  -305  -415  -436  -462  -517  -568  -577  -547  -505  -476  -462  -459  -462  -471  -486  -502  -498  -433  -289  -106  60  192  275  282  245  232  264  342  489  708  951  1157  1280  1319  1311  1295  1303  1357  1449  1540  1589  1595  1569  1520  1451  1358  1237  1088  907  670  369  61  -189  -387  -566  -733  -877  -991  -1067  -1100  -1095  -1060  -1013  -974  -945  -912  -871  -840  -825  -811  -780  -736  -710  -739  -829  -937  -1008  -1025  -1003  -964  -926  -910  -914  -921  -919  -908  -889  -862  -812  -720  -600  -499  -464  -516  -628  -734  -795  -815  -815  -812  -811  -811  -811  -809  -804  -797  -803  -848  -936  -1018  -1033  -969  -860  -737  -620  -536  -497  -488  -492  -508  -547  -600  -639  -644  -617  -569  -485  -335  -146  -2  50  29  -45  -153  -265  -373  -493  -624  -723  -752  -711  -633  -591  -634  -726  -795  -818  -818  -816  -812  -785  -713  -551  -192  464  1403  2475  3480  4361  5226  6022  6480  6414  5788  4674  3386  2300  1527  981  564  220  -53  -241  -363  -443  -485  -491  -468  -423  -375  -352  -366  -404  -438  -448  -412  -310  -171  -56  -2  -9  -44  -14  161  423  622  692  683  657  638  645  716  875  1091  1301  1445  1513  1545  1592  1659  1718  1753  1770  1762  1686  1495  1191  837  526  312  186  118  64  -31  -202  -411  -583  -681  -725  -752  -785  -821  -840  -838  -841  -901  -1044  -1234  -1390  -1457  -1435  -1341  -1192  -1033  -932  -908  -917  -904  -837  -741  -670  -641  -627  -602  -573  -553  -547  -552  -604  -757  -991  -1180  -1233  -1175  -1072  -945  -812  -720  -690  -694  -706  -719  -735  -756  -788  -828  -852  -853  -858  -881  -909  -927  -941  -958  -971  -968  -928  -847  -749  -660  -581  -511  -452  -408  -383  -390  -440  -519  -585  -605  -574  -496  -394  -312  -278  -301  -379  -486  -578  -638  -669  -670  -652  -639  -653  -690  -728  -750  -755  -758  -767  -786  -786  -686  -407  98  935  2117  3395  4498  5357  5894  5987  5661  4958  3897  2697  1667  968  591  395  218  1  -223  -394  -476  -492  -481  -463  -434  -392  -341  -294  -254  -218  -180  -143  -116  -108  -105  -91  -60  -13  43  101  193  371  608  799  895  946  998  1051  1118  1239  1399  1529  1592  1611  1616  1617  1611  1590  1552  1500  1434  1341  1196  1010  840  716  612  483  302  68  -177  -388  -553  -700  -844  -968  -1045  -1072  -1072  -1068  -1067  -1067  -1057  -1029  -993  -968  -961  -961  -960  -959  -957  -955  -940  -903  -854  -829  -855  -919  -985  -1014  -995  -958  -932  -921  -918  -915  -898  -863  -828  -820  -845  -884  -900  -876  -842  -824  -821  -828  -852  -883  -886  -844  -791  -766  -767  -773  -765  -738  -694  -645  -606  -592  -609  -633  -620  -568  -518  -493  -489  -491  -491  -490  -482  -452  -402  -359  -340  -347  -381  -445  -534  -629  -717  -807  -916  -1022  -1088  -1106  -1099  -1080  -1050  -1019  -992  -926  -754  -494  -256  -24  393  1102  2031  3058  4041  4834  5317  5420  5152  4529  3600  2567  1664  985  493  119  -144  -270  -286  -259  -240  -249  -299  -377  -452  -502  -519  -502  -469  -422  -339  -216  -83  20  82  115  133  138  126  104  105  197  417  683  863  916  906  907  955  1052  1181  1328  1487  1640  1756  1830  1868  1857  1799  1726  1655  1570  1432  1224  992  802  676  573  420  176  -121  -406  -642  -805  -879  -883  -861  -840  -824  -816  -828  -867  -922  -962  -964  -928  -877  -840  -833  -856  -901  -950  -982  -993  -993  -984  -954  -892  -816  -762  -743  -743  -747  -748  -747  -751  -763  -781  -794  -793  -780  -762  -752  -750  -745  -714  -643  -546  -462  -412  -402  -460  -609  -800  -935  -973  -941  -879  -804  -735  -689  -666  -645  -617  -590  -571  -537  -448  -315  -186  -100  -60  -63  -108  -195  -315  -443  -548  -622  -675  -714  -758  -818  -883  -932  -959  -972  -982  -975  -916  -789  -636  -524  -428  -212  241  959  1874  2820  3674  4512  5347  5935  6040  5591  4614  3353  2228  1472  1005  665  357  63  -166  -277  -309  -335  -370  -397  -423  -473  -545  -597  -587  -504  -383  -277  -197  -132  -87  -70  -72  -81  -74  -4  164  385  553  625  638  635  645  710  873  1112  1327  1457  1534  1603  1657  1682  1687  1685  1680  1676  1671  1660  1616  1498  1283  966  570  201  -13  -85  -176  -428  -786  -1060  -1163  -1151  -1084  -967  -831  -769  -853  -1038  -1211  -1299  -1314  -1297  -1271  -1243  -1217  -1200  -1195  -1196  -1201  -1206  -1204  -1182  -1132  -1076  -1040  -1006  -928  -821  -745  -727  -743  -771  -809  -852  -885  -901  -904  -900  -885  -860  -846  -858  -875  -877  -856  -802  -710  -614  -559  -569  -644  -744  -815  -830  -803  -765  -733  -704  -671  -634  -603  -596  -616  -641  -651  -655  -660  -649  -589  -470  -338  -252  -224  -236  -287  -393  -553  -721  -827  -858  -873  -931  -1022  -1090  -1096  -1050  -992  -958  -925  -800  -503  -78  366  880  1618  2605  3741  4892  5833  6312  6252  5751  4917  3885  2856  1921  1073  402  -9  -252  -448  -580  -578  -493  -431  -417  -423  -429  -433  -433  -428  -416  -398  -375  -343  -300  -253  -208  -171  -160  -171  -178  -159  -84  89  344  594  763  843  876  891  891  889  950  1137  1411  1639  1725  1684  1589  1504  1453  1428  1402  1340  1202  976  709  462  266  110  -51  -253  -457  -598  -665  -692  -716  -767  -857  -957  -1024  -1047  -1044  -1029  -1009  -987  -971  -966  -970  -976  -981  -986  -985  -967  -923  -883  -887  -935  -980  -994  -987  -981  -982  -985  -967  -913  -839  -786  -768  -768  -762  -747  -728  -712  -698  -676  -646  -616  -599  -606  -640  -688  -727  -748  -759  -769  -787  -818  -862  -904  -922  -907  -859  -766  -645  -538  -464  -403  -342  -290  -253  -233  -228  -233  -247  -273  -308  -341  -373  -426  -513  -628  -760  -865  -866  -757  -642  -627  -737  -877  -922  -892  -877  -872  -832  -746  -592  -343  50  736  1845  3278  4810  6205  7115  7257  6671  5608  4340  3163  2308  1725  1180  574  25  -328  -503  -595  -622  -557  -433  -335  -304  -318  -328  -309  -271  -261  -304  -356  -357  -290  -190  -119  -99  -109  -116  -87  -11  83  163  264  448  681  860  940  959  999  1133  1363  1594  1731  1772  1765  1733  1665  1554  1433  1343  1283  1216  1115  955  736  496  245  -49  -359  -588  -699  -742  -769  -798  -828  -856  -887  -937  -1016  -1105  -1160  -1170  -1153  -1134  -1128  -1131  -1132  -1128  -1122  -1117  -1117  -1120  -1111  -1071  -995  -913  -855  -826  -817  -816  -823  -845  -877  -904  -919  -927  -942  -968  -1006  -1042  -1058  -1029  -941  -821  -721  -670  -665  -693  -738  -788  -841  -889  -920  -932  -936  -932  -906  -837  -722  -593  -501  -475  -505  -562  -613  -633  -575  -403  -167  5  47  -20  -147  -286  -397  -458  -474  -472  -480  -519  -587  -660  -715  -745  -756  -761  -762  -755  -744  -738  -752  -795  -803  -627  -175  540  1483  2564  3651  4682  5599  6190  6226  5680  4658  3388  2226  1420  918  568  302  81  -123  -273  -345  -393  -472  -568  -629  -624  -558  -476  -415  -375  -342  -304  -264  -222  -164  -89  -21  16  29  49  107  201  307  425  559  689  801  899  996  1121  1300  1495  1628  1671  1663  1649  1642  1632  1619  1599  1561  1491  1370  1189  1000  857  737  569  319  9  -308  -585  -793  -920  -975  -994  -1021  -1080  -1157  -1211  -1217  -1183  -1150  -1139  -1132  -1125  -1138  -1166  -1186  -1180  -1154  -1127  -1114  -1113  -1115  -1116  -1114  -1114  -1111  -1091  -1043  -992  -979  -1006  -1042  -1062  -1053  -1024  -1001  -992  -969  -908  -824  -765  -752  -765  -775  -776  -770  -763  -757  -760  -779  -810  -834  -833  -807  -775  -752  -737  -712  -665  -599  -520  -435  -350  -263  -186  -154  -193  -276  -352  -411  -489  -623  -782  -897  -946  -951  -939  -914  -870  -816  -778  -768  -778  -793  -778  -675  -404  73  713  1426  2117  2722  3302  3983  4731  5326  5544  5261  4497  3465  2457  1603  868  236  -214  -418  -421  -349  -302  -298  -312  -333  -361  -389  -402  -394  -368  -330  -279  -226  -190  -182  -192  -205  -189  -107  48  244  438  592  683  728  759  789  813  834  860  892  952  1093  1340  1617  1794  1820  1735  1615  1523  1467  1435  1421  1413  1370  1241  1001  696  398  119  -165  -446  -681  -833  -909  -945  -963  -966  -958  -950  -954  -969  -987  -1008  -1035  -1054  -1055  -1045  -1037  -1036  -1030  -1013  -1002  -1010  -1032  -1046  -1038  -1008  -963  -916  -877  -837  -793  -786  -847  -936  -982  -969  -930  -899  -883  -879  -884  -887  -871  -826  -777  -762  -786  -825  -851  -832  -736  -542  -307  -142  -109  -177  -279  -356  -395  -411  -414  -394  -345  -283  -245  -254  -302  -363  -420  -487  -587  -700  -788  -841  -881  -925  -976  -1025  -1057  -1070  -1073  -1071  -1054  -982  -793  -426  199  1148  2263  3229  3949  4563  5152  5632  5822  5532  4695  3506  2319  1390  761  334  24  -228  -470  -645  -691  -668  -643  -625  -615  -579  -476  -341  -228  -138  -75  -49  -57  -89  -133  -169  -185  -176  -140  -90  -42  5  89  246  462  677  864  1020  1133  1200  1239  1257  1259  1265  1298  1370  1446  1470  1419  1332  1253  1194  1123  997  815  603  342  19  -277  -443  -487  -498  -538  -626  -751  -898  -1041  -1138  -1177  -1186  -1200  -1225  -1239  -1226  -1198  -1170  -1147  -1128  -1117  -1112  -1111  -1110  -1106  -1098  -1086  -1071  -1041  -994  -949  -932  -955  -1006  -1055  -1077  -1071  -1048  -1020  -997  -984  -980  -985  -1001  -1023  -1041  -1021  -932  -794  -675  -614  -596  -590  -581  -564  -542  -515  -478  -438  -413  -411  -425  -444  -456  -454  -450  -458  -489  -551  -623  -674  -705  -752  -832  -926  -995  -1022  -1023  -1025  -1033  -1046  -1078  -1121  -1072  -757  -144  595  1359  2192  3100  4060  5020  5740  5944  5632  4956  4035  3020  2058  1216  554  123  -108  -212  -269  -356  -464  -548  -586  -581  -548  -516  -487  -437  -359  -277  -221  -192  -179  -166  -148  -127  -112  -117  -141  -131  -15  213  458  616  684  726  789  899  1065  1259  1420  1506  1533  1540  1561  1596  1612  1587  1545  1509  1477  1415  1269  1028  775  583  403  157  -124  -349  -474  -536  -588  -652  -744  -880  -1052  -1209  -1291  -1299  -1281  -1270  -1270  -1277  -1284  -1277  -1236  -1147  -1025  -926  -914  -980  -1045  -1049  -1006  -975  -995  -1043  -1082  -1105  -1113  -1110  -1115  -1124  -1101  -1024  -927  -863  -845  -850  -855  -852  -839  -817  -778  -723  -666  -624  -609  -625  -665  -710  -744  -752  -732  -688  -623  -552  -490  -428  -363  -333  -373  -451  -520  -571  -622  -689  -780  -886  -985  -1052  -1086  -1101  -1105  -1086  -1016  -881  -706  -542  -468  -507  -513  -288  242  1104  2228  3434  4612  5647  6272  6286  5736  4790  3693  2711  1978  1452  1035  664  318  -23  -361  -616  -732  -755  -751  -744  -725  -680  -598  -492  -408  -384  -394  -391  -373  -351  -305  -210  -84  26  104  180  278  388  480  543  580  601  623  683  817  1030  1260  1412  1458  1444  1421  1408  1403  1404  1414  1432  1434  1369  1193  932  645  366  122  -64  -222  -390  -557  -697  -814  -931  -1062  -1184  -1252  -1247  -1189  -1114  -1062  -1044  -1044  -1050  -1073  -1122  -1188  -1241  -1266  -1268  -1246  -1189  -1097  -1021  -1027  -1116  -1203  -1214  -1136  -1019  -927  -879  -855  -843  -840  -841  -843  -841  -836  -828  -823  -820  -814  -807  -816  -862  -945  -1041  -1126  -1171  -1138  -995  -782  -599  -506  -483  -475  -443  -387  -331  -286  -256  -246  -249  -250  -249  -266  -342  -496  -679  -807  -851  -838  -799  -755  -726  -725  -755  -802  -847  -873  -878  -860  -809  -716  -551  -283  93  635  1445  2534  3787  5056  6132  6733  6706  6144  5207  4077  3025  2202  1512  864  286  -172  -453  -533  -501  -464  -465  -518  -635  -782  -876  -833  -634  -382  -232  -226  -279  -319  -329  -299  -217  -105  -17  25  54  105  177  258  373  558  773  946  1057  1133  1187  1233  1284  1341  1384  1395  1366  1304  1249  1236  1248  1242  1194  1099  943  710  433  175  -43  -252  -455  -605  -683  -732  -803  -895  -970  -1012  -1040  -1077  -1138  -1214  -1268  -1276  -1239  -1181  -1134  -1114  -1110  -1110  -1100  -1074  -1049  -1043  -1043  -1010  -935  -884  -921  -1003  -1058  -1050  -982  -894  -851  -878  -941  -990  -1007  -1005  -999  -997  -1005  -1030  -1065  -1091  -1085  -1038  -958  -873  -807  -773  -766  -771  -774  -771  -761  -751  -737  -691  -582  -430  -300  -231  -210  -215  -254  -348  -471  -567  -609  -612  -594  -572  -569  -609  -704  -828  -943  -1011  -1019  -965  -866  -755  -679  -672  -746  -889  -1033  -1014  -664  -11  833  1898  3162  4445  5615  6507  6870  6646  5969  4951  3754  2617  1686  968  433  68  -164  -332  -456  -521  -533  -525  -520  -530  -554  -582  -607  -621  -589  -506  -415  -342  -295  -266  -236  -199  -145  -51  85  227  330  391  428  440  426  424  521  773  1094  1322  1398  1390  1381  1407  1456  1482  1451  1372  1289  1234  1210  1190  1129  972  713  402  92  -172  -348  -433  -488  -567  -666  -773  -906  -1070  -1213  -1285  -1277  -1206  -1106  -1028  -999  -1011  -1042  -1080  -1116  -1136  -1119  -1040  -896  -739  -638  -620  -672  -766  -859  -914  -928  -922  -907  -880  -839  -787  -725  -670  -650  -679  -737  -797  -849  -884  -897  -898  -894  -884  -859  -825  -798  -782  -772  -765  -759  -756  -754  -749  -735  -711  -690  -689  -695  -682  -653  -622  -588  -544  -474  -360  -213  -83  -9  4  -38  -142  -283  -422  -557  -690  -787  -823  -817  -801  -792  -798  -819  -849  -870  -866  -822  -717  -546  -358  -217  -115  57  536  1510  2850  4209  5316  5965  6022  5601  4928  4117  3286  2584  1998  1433  873  368  -5  -189  -238  -261  -303  -343  -361  -365  -368  -367  -356  -333  -312  -299  -270  -182  -30  122  208  225  220  241  302  386  463  521  571  631  721  847  984  1097  1161  1177  1178  1241  1430  1692  1890  1966  1958  1894  1770  1594  1399  1217  1047  870  670  446  229  44  -129  -327  -541  -724  -847  -910  -933  -945  -962  -972  -967  -976  -1018  -1080  -1151  -1212  -1236  -1209  -1148  -1089  -1057  -1049  -1049  -1041  -1037  -1057  -1097  -1123  -1111  -1079  -1060  -1056  -1029  -968  -909  -873  -845  -799  -723  -661  -681  -777  -869  -915  -931  -941  -954  -967  -972  -950  -886  -797  -733  -717  -735  -766  -798  -837  -876  -891  -866  -821  -780  -734  -641  -477  -280  -127  -72  -106  -178  -249  -320  -423  -550  -649  -696  -719  -740  -776  -841  -919  -962  -946  -897  -853  -824  -800  -779  -778  -831  -942  -995  -770  -108  935  2116  3167  3986  4655  5232  5597  5602  5160  4251  3106  2159  1584  1204  844  432  -8  -341  -495  -535  -536  -527  -521  -518  -520  -522  -521  -509  -477  -419  -335  -238  -148  -86  -54  -39  -4  91  244  398  506  567  614  680  775  892  1010  1102  1170  1245  1340  1424  1468  1482  1496  1526  1560  1583  1596  1605  1591  1512  1341  1096  828  582  374  180  -51  -325  -565  -709  -783  -854  -946  -1022  -1059  -1079  -1113  -1160  -1195  -1198  -1170  -1127  -1083  -1039  -983  -917  -863  -838  -844  -866  -884  -894  -909  -943  -993  -1036  -1056  -1055  -1041  -1013  -978  -964  -971  -952  -889  -821  -776  -748  -727  -719  -722  -727  -731  -745  -769  -785  -779  -765  -777  -828  -886  -920  -929  -934  -932  -892  -787  -650  -547  -493  -446  -383  -317  -266  -234  -224  -252  -326  -422  -498  -533  -548  -572  -609  -652  -701  -759  -809  -828  -821  -806  -795  -780  -740  -653  -523  -352  -76  396  1086  1974  3064  4262  5317  5985  6182  5898  5152  4100  2991  2012  1284  846  560  243  -64  -251  -348  -430  -528  -633  -702  -703  -645  -553  -465  -415  -405  -415  -428  -436  -419  -347  -219  -78  30  100  144  176  208  258  335  443  587  751  895  994  1059  1143  1272  1403  1487  1523  1528  1505  1462  1410  1356  1310  1278  1238  1138  934  639  329  103  -13  -82  -182  -334  -504  -657  -770  -827  -841  -863  -946  -1078  -1193  -1244  -1250  -1245  -1245  -1241  -1204  -1123  -1030  -968  -945  -923  -868  -794  -746  -743  -777  -831  -880  -914  -946  -973  -974  -948  -905  -860  -839  -845  -834  -790  -738  -704  -705  -717  -710  -694  -686  -682  -685  -690  -687  -676  -662  -649  -650  -674  -707  -728  -723  -701  -689  -692  -686  -631  -493  -299  -136  -59  -67  -136  -244  -365  -476  -549  -571  -552  -524  -521  -563  -646  -743  -819  -864  -900  -936  -935  -856  -700  -493  -259  -57  50  54  57  303  1052  2276  3631  4830  5764  6320  6420  6079  5289  4118  2884  1910  1261  841  528  216  -79  -246  -257  -205  -166  -153  -158  -184  -241  -326  -414  -456  -422  -318  -169  -10  114  171  173  167  198  285  399  491  534  547  578  684  874  1088  1248  1332  1386  1472  1591  1690  1736  1745  1740  1733  1720  1684  1624  1567  1543  1535  1464  1258  938  595  292  54  -119  -258  -390  -517  -611  -656  -663  -651  -623  -575  -515  -470  -460  -472  -484  -509  -573  -642  -640  -536  -384  -294  -357  -536  -698  -769  -778  -772  -769  -768  -758  -724  -659  -578  -508  -467  -466  -515  -615  -731  -811  -838  -837  -837  -843  -850  -862  -896  -961  -1033  -1085  -1110  -1117  -1107  -1068  -999  -932  -903  -922  -967  -1010  -1039  -1050  -1032  -973  -891  -820  -765  -715  -661  -595  -513  -431  -373  -340]
